time,x,y,theta,period,anti period
0.0041666666666666,-0.25791130289661196,0.0031472081218274113,-1.5585942562053539,0.0,0.0
0.0083333333333333,-0.25869810492706885,0.0023604060913705585,-1.5616724076474067,0.0,0.0
0.0125,-0.25869810492706885,0.0015736040609137057,-1.5647136202598668,0.0,0.0
0.0166666666666666,-0.25869810492706885,0.0007868020304568528,-1.5677549453951216,0.0,0.0
0.0208333333333333,-0.2594849069575257,0.0,-1.5707963267948966,0.0,0.0
0.025,-0.2594849069575257,0.0,-1.5707963267948966,0.0,0.0
0.0291666666666666,-0.25869810492706885,0.0,-1.5707963267948966,0.0,0.0
0.0333333333333333,-0.25869810492706885,0.0,-1.5707963267948966,0.0,0.0
0.0375,-0.25791130289661196,0.0,-1.5707963267948966,0.0,0.0
0.0416666666666666,-0.25791130289661196,0.0015736040609137057,-1.5646950643950823,0.0,0.0
0.0458333333333333,-0.25791130289661196,0.0015736040609137057,-1.5646950643950823,0.0,0.0
0.05,-0.2571245008661551,0.003934010152284264,-1.55549749992113,0.0,0.0
0.0541666666666664,-0.2563376988356983,0.00550761421319797,-1.5493138567412192,0.0,0.0
0.0583333333333335,-0.25476409477478457,0.007081218274111675,-1.543008284138337,0.0,0.0
0.0625,-0.25397729274432773,0.009441624365482234,-1.533638364881303,0.0,0.0
0.0666666666666665,-0.2516168866529572,0.010228426395939086,-1.5301679015835787,0.0,0.0
0.0708333333333335,-0.25004328259204345,0.013375634517766497,-1.5173539868259343,0.0,0.0
0.075,-0.24925648056158659,0.01652284263959391,-1.504604648127505,0.0,0.0
0.0791666666666665,-0.24689607447021603,0.018883248730964468,-1.4944623561597408,0.0,0.0
0.0833333333333335,-0.24374886634838863,0.02281725888324873,-1.4774586225284945,0.0,0.0
0.0875,-0.2421752622874749,0.025964467005076142,-1.4639907746877125,0.0,0.0
0.0916666666666665,-0.2406016582265612,0.0283248730964467,-1.453610529999641,0.0,0.0
0.0958333333333335,-0.23824125213519065,0.03304568527918782,-1.4329689357225657,0.0,0.0
0.1,-0.2343072419829064,0.03619289340101523,-1.4175399107272693,0.0,0.0
0.1041666666666664,-0.23116003386107897,0.040913705583756343,-1.3956175484971178,0.0,0.0
0.1083333333333335,-0.22801282573925158,0.044847715736040614,-1.3765860117482829,0.0,0.0
0.1125,-0.22565241964788102,0.04878172588832488,-1.3578917895527658,0.0,0.0
0.1166666666666665,-0.22171840949559674,0.05350253807106599,-1.334014473384733,0.0,0.0
0.1208333333333335,-0.21778439934331248,0.05743654822335026,-1.3129364823285634,0.0,0.0
0.125,-0.21306358716057136,0.06137055837563452,-1.2903490042051742,0.0,0.0
0.1291666666666665,-0.2091295770082871,0.06609137055837563,-1.2646981015434562,0.0,0.0
0.1333333333333335,-0.20440876482554599,0.07081218274111675,-1.2373104458944795,0.0,0.0
0.1375,-0.19968795264280487,0.07474619289340102,-1.212626353291238,0.0,0.0
0.1416666666666665,-0.19496714046006375,0.08025380710659899,-1.1803067332513955,0.0,0.0
0.1458333333333335,-0.18945952624686577,0.08497461928934011,-1.1491816177270349,0.0,0.0
0.15,-0.18316511000321095,0.08890862944162436,-1.1188955297042642,0.0,0.0
0.1541666666666665,-0.17844429782046983,0.09284263959390864,-1.0910494229282768,0.0,0.0
0.1583333333333335,-0.17136307954635815,0.09756345177664975,-1.0532278707331002,0.0,0.0
0.1625,-0.16506866330270334,0.10228426395939087,-1.0160557904349872,0.0,0.0
0.1666666666666665,-0.15798744502859166,0.10700507614213198,-0.9754674881383456,0.0,0.0
0.1708333333333335,-0.15169302878493685,0.11093908629441625,-0.9393453682492543,0.0,0.0
0.175,-0.14461181051082517,0.11487309644670052,-0.8995070260540313,0.0,0.0
0.1791666666666665,-0.1375305922367135,0.11959390862944164,-0.8550440867146152,0.0,0.0
0.1833333333333335,-0.12966257193214495,0.12274111675126904,-0.8128134562515347,0.0,0.0
0.1875,-0.12336815568849013,0.12588832487309645,-0.7752877610216298,0.0,0.0
0.1916666666666665,-0.11471333335346476,0.12903553299492387,-0.7267076290385425,0.0,0.0
0.1958333333333335,-0.10605851101843938,0.13296954314720813,-0.6732850218006767,0.0,0.0
0.2,-0.09819049071387084,0.1353299492385787,-0.6276775426089838,0.0,0.0
0.2041666666666665,-0.08874886634838862,0.1384771573604061,-0.5699455542594708,0.0,0.0
0.2083333333333335,-0.08088084604382009,0.1416243654822335,-0.5188939725304205,0.0,0.0
0.2125,-0.0722260237087947,0.1431979695431472,-0.46714453025139224,0.0,0.0
0.2166666666666665,-0.06278439934331247,0.14555837563451776,-0.4072240586474575,0.0,0.0
0.2208333333333335,-0.05412957700828709,0.1471319796954315,-0.35252986367776956,0.0,0.0
0.225,-0.044687952642804854,0.14949238578680205,-0.2904760440371936,0.0,0.0
0.2291666666666664,-0.03603313030777948,0.14949238578680205,-0.23652485513009214,0.0,0.0
0.2333333333333334,-0.02659150594229724,0.15106598984771574,-0.1742407740941666,0.0,0.0
0.2375,-0.016363079546358156,0.15106598984771574,-0.10789676840147193,0.0,0.0
0.2416666666666665,-0.008495059241789627,0.15106598984771574,-0.05617493146776291,0.0,0.0
0.2458333333333335,0.00173336715414946,0.15106598984771574,0.011473734698802739,0.0,0.0
0.25,0.009601387458717988,0.15106598984771574,0.06347219673716545,0.0,0.0
0.2541666666666665,0.020616615885113928,0.1518527918781726,0.13494203852138736,0.0,0.0
0.2583333333333335,0.02927143822013931,0.15027918781725888,0.19237169970850101,0.0,0.0
0.2625,0.038713062585621544,0.14949238578680205,0.25339688893540024,0.0,0.0
0.2666666666666665,0.047367884920646926,0.14791878172588832,0.309910667708317,0.0,0.0
0.2708333333333335,0.05602270725567231,0.14555837563451776,0.3674055234390323,0.0,0.0
0.275,0.06546433162115455,0.14398477157360406,0.4267236601286608,0.0,0.0
0.2791666666666665,0.07569275801709363,0.14241116751269037,0.48853559754412124,0.0,0.0
0.2833333333333335,0.08356077832166216,0.1400507614213198,0.5379499465564023,0.0,0.0
0.2875,0.09300240268714438,0.13769035532994925,0.5940560156086417,0.0,0.0
0.2916666666666665,0.10087042299171292,0.13454314720812183,0.6433253803291602,0.0,0.0
0.2958333333333335,0.1095252453267383,0.13218274111675127,0.6919321598960114,0.0,0.0
0.3,0.11739326563130682,0.128248730964467,0.7412346774423804,0.0,0.0
0.3041666666666665,0.1260480879663322,0.12588832487309645,0.7860323038538427,0.0,0.0
0.3083333333333335,0.1331293062404439,0.12195431472081218,0.8291792989158607,0.0,0.0
0.3125,0.1409973265450124,0.11880710659898477,0.870602618241382,0.0,0.0
0.3166666666666665,0.14807854481912408,0.11408629441624366,0.914338643428164,0.0,0.0
0.3208333333333335,0.15515976309323576,0.11093908629441625,0.9500746430832162,0.0,0.0
0.325,0.16145417933689057,0.10700507614213198,0.9855044902011656,0.0,0.0
0.3291666666666665,0.16853539761100225,0.10385786802030457,1.0185228093397118,0.0,0.0
0.3333333333333335,0.17482981385465707,0.0983502538071066,1.0583700059743015,0.0,0.0
0.3375,0.18033742806785505,0.09362944162436548,1.0919146120028749,0.0,0.0
0.3416666666666665,0.18663184431150986,0.08969543147208123,1.1227880921711373,0.0,0.0
0.3458333333333335,0.19213945852470785,0.08576142131979696,1.1509819988025014,0.0,0.0
0.35,0.19764707273790583,0.08104060913705584,1.1816760991228685,0.0,0.0
0.3541666666666665,0.20236788492064692,0.07710659898477158,1.206756650146403,0.0,0.0
0.3583333333333335,0.2078754991338449,0.07238578680203046,1.2357107906685698,0.0,0.0
0.3625,0.21180950928612916,0.0684517766497462,1.2582149428083254,0.0,0.0
0.3666666666666665,0.21574351943841344,0.06373096446700507,1.2835636385900426,0.0,0.0
0.3708333333333335,0.22046433162115456,0.05901015228426396,1.3092639458754205,0.0,0.0
0.375,0.22439834177343881,0.05586294416243655,1.3268104357557944,0.0,0.0
0.3791666666666665,0.22833235192572307,0.051142131979695436,1.3504518968677202,0.0,0.0
0.3833333333333335,0.2314795600475505,0.04799492385786802,1.3663533388062148,0.0,0.0
0.3875,0.23541357019983475,0.04406091370558376,1.3857731155161714,0.0,0.0
0.3916666666666665,0.2377739762912053,0.040126903553299495,1.403610902414463,0.0,0.0
0.3958333333333335,0.24013438238257587,0.03697969543147208,1.418000778507142,0.0,0.0
0.4,0.24406839253486012,0.03383248730964467,1.4330552114588053,0.0,0.0
0.4041666666666665,0.24642879862623068,0.02989847715736041,1.450059403167842,0.0,0.0
0.4083333333333335,0.24721560065668755,0.0283248730964467,1.4567181914418743,0.0,0.0
0.4125,0.2495760067480581,0.02439086294416244,1.4733764950724964,0.0,0.0
0.4166666666666665,0.2527232148698855,0.02203045685279188,1.4838438608873976,0.0,0.0
0.4208333333333335,0.25351001690034236,0.020456852791878172,1.4902763399775063,0.0,0.0
0.425,0.2550836209612561,0.017309644670050764,1.5030414917428527,0.0,0.0
0.4291666666666664,0.2558704229917129,0.015736040609137057,1.5093736500785402,0.0,0.0
0.4333333333333334,0.25744402705262664,0.01416243654822335,1.5158400084984398,0.0,0.0
0.4375,0.2582308290830835,0.012588832487309645,1.5220845835576475,0.0,0.0
0.4416666666666665,0.2590176311135403,0.012588832487309645,1.522232319347404,0.0,0.0
0.4458333333333336,0.26059123517445404,0.01101522842639594,1.528551333780207,0.0,0.0
0.45,0.2613780372049109,0.01101522842639594,1.5286783493973273,0.0,0.0
0.4541666666666665,0.2613780372049109,0.01101522842639594,1.5286783493973273,0.0,0.0
0.4583333333333335,0.2613780372049109,0.010228426395939086,1.5316835913219629,0.0,0.0
0.4625,0.2613780372049109,0.009441624365482234,1.5346895402629503,0.0,0.0
0.4666666666666665,0.2613780372049109,0.010228426395939086,1.5316835913219629,0.0,0.0
0.4708333333333335,0.2613780372049109,0.01101522842639594,1.5286783493973273,0.0,0.0
0.475,0.26059123517445404,0.011802030456852793,1.5255378161378625,0.0,0.0
0.4791666666666665,0.2590176311135403,0.012588832487309645,1.522232319347404,0.0,0.0
0.4833333333333335,0.2582308290830835,0.01416243654822335,1.5160071191806155,0.0,0.0
0.4875,0.25744402705262664,0.014949238578680205,1.5127935434331783,0.0,0.0
0.4916666666666664,0.2558704229917129,0.01652284263959391,1.5063108214366392,0.0,0.0
0.4958333333333334,0.2558704229917129,0.01967005076142132,1.494072183218808,0.0,0.0
0.5,0.25351001690034236,0.021243654822335027,1.487193562769563,0.0,0.0
0.504166666666665,0.2511496108089718,0.02439086294416244,1.473983070372558,0.0,0.0
0.508333333333335,0.2495760067480581,0.025964467005076142,1.4671349266185838,0.0,0.0
0.5125,0.24878920471760124,0.029111675126903554,1.4543126188530346,0.0,0.0
0.516666666666665,0.24642879862623068,0.03225888324873097,1.440630982055849,0.0,0.0
0.520833333333335,0.24406839253486012,0.035406091370558376,1.4267350001691852,0.0,0.0
0.525,0.24092118441303273,0.03855329949238579,1.4121171462258006,0.0,0.0
0.529166666666665,0.23856077832166217,0.042487309644670054,1.3945458511548328,0.0,0.0
0.533333333333335,0.2346267681693779,0.04642131979695432,1.3754672299297714,0.0,0.0
0.5375,0.2314795600475505,0.05035532994923858,1.3565966878018538,0.0,0.0
0.541666666666665,0.22833235192572307,0.054289340101522844,1.3373661115977336,0.0,0.0
0.545833333333335,0.22439834177343881,0.05822335025380711,1.3169301485017892,0.0,0.0
0.55,0.22046433162115456,0.06294416243654823,1.292688099570058,0.0,0.0
0.554166666666665,0.21495671740795658,0.0668781725888325,1.2691656188505567,0.0,0.0
0.558333333333335,0.21180950928612916,0.07081218274111675,1.248157918210513,0.0,0.0
0.5625,0.2063018950729312,0.07474619289340102,1.2231931971121086,0.0,0.0
0.566666666666665,0.20079428085973322,0.07946700507614214,1.1939476137687313,0.0,0.0
0.570833333333335,0.1960734686769921,0.08418781725888325,1.1652311483428401,0.0,0.0
0.575,0.19056585446379415,0.08890862944162436,1.1342644137717772,0.0,0.0
0.579166666666665,0.1842714382201393,0.09362944162436548,1.1006848875181077,0.0,0.0
0.583333333333335,0.17876382400694135,0.0983502538071066,1.0678236343716367,0.0,0.0
0.5875,0.17246940776328654,0.10228426395939087,1.0354972952514736,0.0,0.0
0.591666666666665,0.16538818948917486,0.10621827411167513,0.9998983738101354,0.0,0.0
0.595833333333335,0.15909377324552001,0.1101522842639594,0.9652072989976721,0.0,0.0
0.6,0.15201255497140834,0.11408629441624366,0.9269716256683368,0.0,0.0
0.604166666666665,0.1449313366972967,0.11880710659898477,0.8841296529587448,0.0,0.0
0.608333333333335,0.137850118423185,0.12274111675126904,0.8433130251869168,0.0,0.0
0.6125,0.13076890014907333,0.12588832487309645,0.8044117996673148,0.0,0.0
0.616666666666665,0.12211407781404794,0.1298223350253807,0.7548116626388807,0.0,0.0
0.620833333333335,0.11424605750947942,0.13296954314720813,0.7098050051849681,0.0,0.0
0.625,0.10637803720491089,0.13611675126903555,0.6633709723800624,0.0,0.0
0.629166666666665,0.0977232148698855,0.13926395939086295,0.6118741463635499,0.0,0.0
0.633333333333335,0.08985519456531697,0.1416243654822335,0.5653741129645251,0.0,0.0
0.6375,0.08041357019983474,0.1431979695431472,0.5116714896470392,0.0,0.0
0.641666666666665,0.07097194583435251,0.14555837563451776,0.4536656240760054,0.0,0.0
0.645833333333335,0.06231712349932713,0.1471319796954315,0.40063823320593567,0.0,0.0
0.65,0.05287549913384489,0.14870558375634518,0.34162983455530405,0.0,0.0
0.654166666666665,0.04422067679881951,0.15027918781725888,0.28617953457027867,0.0,0.0
0.658333333333335,0.03477905243333728,0.15263959390862944,0.22402620541611645,0.0,0.0
0.6625,0.02691103212876875,0.15263959390862944,0.17451102598724705,0.0,0.0
0.666666666666665,0.017469407763286517,0.15263959390862944,0.11395291876344198,0.0,0.0
0.670833333333335,0.00724098136734743,0.15263959390862944,0.047402884099194624,0.0,0.0
0.675,-0.002200642998134804,0.1534263959390863,-0.014342330666411666,0.0,0.0
0.679166666666665,-0.011642267363617039,0.1534263959390863,-0.07573663328465204,0.0,0.0
0.683333333333335,-0.019510287668185567,0.1518527918781726,-0.12778153682262586,0.0,0.0
0.6875,-0.029738714064124653,0.1518527918781726,-0.1933915117261974,0.0,0.0
0.691666666666665,-0.03918033842960689,0.15027918781725888,-0.25503953743365976,0.0,0.0
0.695833333333335,-0.04704835873417541,0.14870558375634518,-0.306421174485285,0.0,0.0
0.7,-0.05648998309965765,0.1471319796954315,-0.3665861250809915,0.0,0.0
0.704166666666665,-0.06514480543468303,0.14477157360406093,-0.42284012446603175,0.0,0.0
0.708333333333335,-0.07379962776970841,0.1431979695431472,-0.47586615740091914,0.0,0.0
0.7125,-0.08166764807427694,0.14083756345177664,-0.5254874159472055,0.0,0.0
0.716666666666665,-0.09032247040930232,0.1384771573604061,-0.5779590888941162,0.0,0.0
0.720833333333335,-0.0989772927443277,0.1353299492385787,-0.6314758529891765,0.0,0.0
0.725,-0.10605851101843938,0.13296954314720813,-0.6732850218006767,0.0,0.0
0.729166666666665,-0.11313972929255105,0.1298223350253807,-0.7168423497027839,0.0,0.0
0.733333333333335,-0.12022094756666273,0.12667512690355331,-0.7592628359595363,0.0,0.0
0.7375,-0.12730216584077442,0.12352791878172589,-0.8004440549506502,0.0,0.0
0.741666666666665,-0.13438338411488607,0.11959390862944164,-0.8435639650721058,0.0,0.0
0.745833333333335,-0.1406778003585409,0.11723350253807108,-0.8760496509705261,0.0,0.0
0.75,-0.1477590186326526,0.11408629441624366,-0.9132939982219498,0.0,0.0
0.754166666666665,-0.15326663284585054,0.10936548223350254,-0.9510251957431018,0.0,0.0
0.758333333333335,-0.15956104908950536,0.10621827411167513,-0.98346983735004,0.0,0.0
0.7625,-0.1658554653331602,0.10228426395939087,-1.018182592056685,0.0,0.0
0.766666666666665,-0.17057627751590132,0.09756345177664975,-1.051246843691676,0.0,0.0
0.770833333333335,-0.17687069375955614,0.09441624365482235,-1.0804640127749146,0.0,0.0
0.775,-0.18159150594229725,0.09048223350253808,-1.1085308790777786,0.0,0.0
0.779166666666665,-0.18631231812503837,0.0865482233502538,-1.1359226830362052,0.0,0.0
0.783333333333335,-0.19181993233823633,0.08261421319796955,-1.164119224155331,0.0,0.0
0.7875,-0.1957539424905206,0.07868020304568528,-1.1886236541901691,0.0,0.0
0.791666666666665,-0.19968795264280487,0.07395939086294416,-1.2160867559761575,0.0,0.0
0.795833333333335,-0.20519556685600282,0.07081218274111675,-1.2384969312593819,0.0,0.0
0.8,-0.20834277497783024,0.06609137055837563,-1.263613366287616,0.0,0.0
0.804166666666665,-0.2122767851301145,0.06215736040609137,-1.2859462643130253,0.0,0.0
0.808333333333335,-0.21542399325194192,0.05901015228426396,-1.3034292266140748,0.0,0.0
0.8125,-0.21857120137376934,0.05586294416243655,-1.3205706150267738,0.0,0.0
0.816666666666665,-0.2209316074651399,0.05271573604060914,-1.3365692890174008,0.0,0.0
0.820833333333335,-0.22329201355651046,0.04878172588832488,-1.3557096189687292,0.0,0.0
0.825,-0.22722602370879472,0.04563451776649746,-1.3725997911058496,0.0,0.0
0.829166666666665,-0.2287996277697084,0.042487309644670054,-1.3871911107531378,0.0,0.0
0.833333333333335,-0.2303732318306221,0.040126903553299495,-1.3983443233443855,0.0,0.0
0.8375,-0.23352043995244953,0.037766497461928936,-1.4104578891813424,0.0,0.0
0.841666666666665,-0.2358808460438201,0.03461928934010153,-1.4250707015298625,0.0,0.0
0.845833333333335,-0.2358808460438201,0.03225888324873097,-1.4348802600018462,0.0,0.0
0.85,-0.23824125213519065,0.02989847715736041,-1.4459523607038736,0.0,0.0
0.854166666666665,-0.23981485619610435,0.0283248730964467,-1.453229585600253,0.0,0.0
0.858333333333335,-0.24138846025701807,0.026751269035532994,-1.4604242208458704,0.0,0.0
0.8625,-0.24138846025701807,0.02517766497461929,-1.4668686085083877,0.0,0.0
0.866666666666665,-0.24296206431793177,0.023604060913705587,-1.4739490370611648,0.0,0.0
0.870833333333335,-0.24296206431793177,0.02203045685279188,-1.4803691405006114,0.0,0.0
0.875,-0.24453566837884547,0.021243654822335027,-1.4841404465097936,0.0,0.0
0.879166666666665,-0.24374886634838863,0.020456852791878172,-1.487066603868764,0.0,0.0
0.883333333333335,-0.24374886634838863,0.020456852791878172,-1.487066603868764,0.0,0.0
0.8875,-0.24374886634838863,0.01967005076142132,-1.4902727991254672,0.0,1.0
0.891666666666665,-0.24374886634838863,0.01967005076142132,-1.4902727991254672,0.0,1.0
0.895833333333335,-0.24374886634838863,0.01967005076142132,-1.4902727991254672,0.0,1.0
0.9,-0.24453566837884547,0.01967005076142132,-1.490530773242115,0.0,1.0
0.904166666666665,-0.24374886634838863,0.021243654822335027,-1.4838621331430368,0.0,1.0
0.908333333333335,-0.24296206431793177,0.021243654822335027,-1.4835820308432102,0.0,1.0
0.9125,-0.24296206431793177,0.02281725888324873,-1.4771581210657623,0.0,1.0
0.916666666666665,-0.24138846025701807,0.023604060913705587,-1.4733216711904609,0.0,1.0
0.920833333333335,-0.2406016582265612,0.02517766497461929,-1.46653120372876,0.0,1.0
0.925,-0.2390280541656475,0.026751269035532994,-1.4593432544738227,0.0,1.0
0.929166666666665,-0.2374544501047338,0.0283248730964467,-1.4520718162570618,0.0,1.0
0.933333333333335,-0.2358808460438201,0.03147208121827411,-1.4381560657372527,0.0,1.0
0.9375,-0.2343072419829064,0.03304568527918782,-1.4306847421398907,0.0,1.0
0.941666666666665,-0.23352043995244953,0.035406091370558376,-1.4203235674807684,0.0,1.0
0.945833333333335,-0.2303732318306221,0.037766497461928936,-1.4083055525636972,0.0,1.0
0.95,-0.2287996277697084,0.040913705583756343,-1.393847623876501,0.0,1.0
0.954166666666665,-0.22643922167833785,0.04406091370558376,-1.3786161215948696,0.0,1.0
0.958333333333335,-0.22329201355651046,0.04642131979695432,-1.3658209598277677,0.0,1.0
0.9625,-0.2209316074651399,0.05035532994923858,-1.3467017575283975,0.0,1.0
0.966666666666665,-0.21857120137376934,0.05350253807106599,-1.3307336741940883,0.0,1.0
0.970833333333335,-0.21542399325194192,0.05743654822335026,-1.310236623614017,0.0,1.0
0.975,-0.2122767851301145,0.06058375634517767,-1.2927874240429964,0.0,1.0
0.979166666666665,-0.20834277497783024,0.06451776649746194,-1.2704906162820029,0.0,1.0
0.983333333333335,-0.20440876482554599,0.06766497461928934,-1.2511222257173795,0.0,1.0
0.9875,-0.19968795264280487,0.07238578680203046,-1.2230341901823256,0.0,1.0
0.991666666666665,-0.1957539424905206,0.07631979695431472,-1.1990477412425828,0.0,1.0
0.995833333333335,-0.19181993233823633,0.07946700507614214,-1.1780412346906397,0.0,1.0
1.0,-0.1870991201554952,0.0834010152284264,-1.1514752637447554,0.0,1.0
1.004166666666665,-0.1823783079727541,0.08733502538071067,-1.1241972753920102,0.0,1.0
1.008333333333335,-0.177657495790013,0.09126903553299492,-1.0962204698318796,0.0,1.0
1.0125,-0.17136307954635815,0.09598984771573604,-1.0601901855965896,0.0,1.0
